"Freq [GHz]","TEM mode []"
0.1,-71.5737930615773
0.10225,-71.379749781983
0.1045,-71.1899251540452
0.10675,-71.0041401805851
0.109,-70.8222270330618
0.11125,-70.6440281384891
0.1135,-70.4693953579873
0.11575,-70.2981892461511
0.118,-70.1302783818747
0.12025,-69.9655387625113
0.1225,-69.8038532543046
0.12475,-69.6451110929282
0.127,-69.4892074287422
0.12925,-69.3360429120414
0.1315,-69.1855233141408
0.13375,-69.03755918064
0.136,-68.8920655136352
0.13825,-68.7489614800204
0.1405,-68.6081701433438
0.14275,-68.4696182169679
0.145,-68.333235836528
0.14725,-68.1989563499031
0.1495,-68.0667161231008
0.15175,-67.9364543606277
0.154,-67.8081129390629
0.15625,-67.6816362526836
0.1585,-67.5569710701085
0.16075,-67.4340664010237
0.163,-67.3128733721513
0.16525,-67.1933451116993
0.1675,-67.0754366416039
0.16975,-66.9591047769397
0.172,-66.8443080319331
0.17425,-66.731006532062
0.1765,-66.6191619317755
0.17875,-66.5087373374053
0.181,-66.39969723488
0.18325,-66.2920074218869
0.1855,-66.1856349441565
0.18775,-66.0805480355707
0.19,-65.9767160618232
0.19225,-65.8741094673813
0.1945,-65.7726997255192
0.19675,-65.6724592912112
0.199,-65.5733615566904
0.20125,-65.4753808094937
0.2035,-65.378492192828
0.20575,-65.2826716681042
0.208,-65.1878959794985
0.21025,-65.0941426204117
0.2125,-65.0013898017032
0.21475,-64.9096164215905
0.217,-64.818802037109
0.21925,-64.7289268370372
0.2215,-64.6399716161957
0.22375,-64.55191775104
0.226,-64.4647471764674
0.22825,-64.3784423637673
0.2305,-64.2929862996476
0.23275,-64.2083624662753
0.235,-64.1245548222715
0.23725,-64.0415477846092
0.2395,-63.9593262113597
0.24175,-63.8778753852434
0.244,-63.797180997938
0.24625,-63.7172291351043
0.2485,-63.6380062620896
0.25075,-63.5594992102728
0.253,-63.4816951640167
0.25525,-63.4045816481958
0.2575,-63.3281465162684
0.25975,-63.2523779388662
0.262,-63.1772643928738
0.26425,-63.1027946509734
0.2665,-63.0289577716304
0.26875,-62.9557430894995
0.271,-62.8831402062284
0.27325,-62.811138981641
0.2755,-62.7397295252801
0.27775,-62.6689021882937
0.28,-62.5986475556472
0.28225,-62.5289564386462
0.2845,-62.4598198677551
0.28675,-62.3912290856984
0.289,-62.32317554083
0.29125,-62.2556508807591
0.2935,-62.1886469462215
0.29575,-62.1221557651829
0.298,-62.0561695471661
0.30025,-61.9906806777912
0.3025,-61.9256817135179
0.30475,-61.8611653765835
0.307,-61.7971245501262
0.30925,-61.7335522734855
0.3115,-61.6704417376735
0.31375,-61.6077862810086
0.316,-61.5455793849042
0.31825,-61.4838146698076
0.3205,-61.422485891281
0.32275,-61.3615869362195
0.325,-61.3011118192006
0.32725,-61.2410546789588
0.3295,-61.1814097749814
0.33175,-61.1221714842196
0.334,-61.0633342979109
0.33625,-61.0048928185078
0.3385,-60.946841756709
0.34075,-60.8891759285886
0.343,-60.8318902528197
0.34525,-60.7749797479893
0.3475,-60.7184395299991
0.34975,-60.6622648095512
0.352,-60.6064508897141
0.35425,-60.5509931635658
0.3565,-60.4958871119118
0.35875,-60.4411283010747
0.361,-60.386712380753
0.36325,-60.3326350819464
0.3655,-60.2788922149449
0.36775,-60.2254796673795
0.37,-60.1723934023331
0.37225,-60.1196294565075
0.3745,-60.0671839384467
0.37675,-60.0150530268125
0.379,-59.963232968712
0.38125,-59.9117200780746
0.3835,-59.8605107340761
0.38575,-59.80960137961
0.388,-59.7589885198018
0.39025,-59.7086687205681
0.3925,-59.658638607215
0.39475,-59.6088948630784
0.397,-59.5594342282019
0.39925,-59.5102534980524
0.4015,-59.4613495222718
0.40375,-59.4127192034633
0.406,-59.364359496012
0.40825,-59.3162674049376
0.4105,-59.2684399847788
0.41275,-59.2208743385082
0.415,-59.1735676164768
0.41725,-59.1265170153867
0.4195,-59.079719777292
0.42175,-59.0331731886261
0.424,-58.9868745792545
0.42625,-58.9408213215536
0.4285,-58.8950108295129
0.43075,-58.8494405578611
0.433,-58.8041080012153
0.43525,-58.7590106932513
0.4375,-58.7141462058963
0.43975,-58.6695121485418
0.442,-58.6251061672768
0.44425,-58.5809259441402
0.4465,-58.5369691963924
0.44875,-58.4932336758052
0.451,-58.4497171679691
0.45325,-58.4064174916182
0.4555,-58.363332497972
0.45775,-58.3204600700928
0.46,-58.2777981222594
0.46225,-58.2353445993558
0.4645,-58.1930974762751
0.46675,-58.1510547573372
0.469,-58.1092144757213
0.47125,-58.0675746929113
0.4735,-58.0261334981547
0.47575,-57.9848890079344
0.478,-57.9438393654528
0.48025,-57.9029827401284
0.4825,-57.8623173271032
0.48475,-57.8218413467632
0.487,-57.7815530442682
0.48925,-57.7414506890938
0.4915,-57.7015325745832
0.49375,-57.6617970175096
0.496,-57.622242357648
0.49825,-57.582866957358
0.5005,-57.5436692011739
0.50275,-57.5046474954063
0.505,-57.4658002677508
0.50725,-57.4271259669064
0.5095,-57.3886230622018
0.51175,-57.3502900432309
0.514,-57.3121254194944
0.51625,-57.2741277200517
0.5185,-57.2362954931782
0.52075,-57.1986273060311
0.523,-57.1611217443228
0.52525,-57.1237774119998
0.5275,-57.0865929309301
0.52975,-57.0495669405964
0.532,-57.012698097796
0.53425,-56.9759850763466
0.5365,-56.9394265667993
0.53875,-56.9030212761566
0.541,-56.8667679275969
0.54325,-56.8306652602042
0.5455,-56.7947120287039
0.54775,-56.7589070032038
0.55,-56.7232489689405
0.55225,-56.6877367260307
0.5545,-56.6523690892278
0.55675,-56.6171448876836
0.559,-56.5820629647145
0.56125,-56.5471221775724
0.5635,-56.5123213972204
0.56575,-56.4776595081129
0.568,-56.4431354079796
0.57025,-56.4087480076149
0.5725,-56.3744962306702
0.57475,-56.3403790134511
0.577,-56.3063953047179
0.57925,-56.2725440654908
0.5815,-56.2388242688582
0.58375,-56.205234899789
0.586,-56.1717749549483
0.58825,-56.1384434425171
0.5905,-56.1052393820148
0.59275,-56.0721618041255
0.595,-56.0392097505275
0.59725,-56.0063822737261
0.5995,-55.9736784368893
0.60175,-55.9410973136867
0.604,-55.9086379881318
0.60625,-55.8762995544262
0.6085,-55.8440811168081
0.61075,-55.8119817894021
0.613,-55.7800006960733
0.61525,-55.7481369702825
0.6175,-55.7163897549455
0.61975,-55.6847582022937
0.622,-55.6532414737383
0.62425,-55.6218387397361
0.6265,-55.5905491796584
0.62875,-55.5593719816615
0.631,-55.5283063425603
0.63325,-55.4973514677038
0.6355,-55.4665065708525
0.63775,-55.4357708740585
0.64,-55.4051436075473
0.64225,-55.374624009602
0.6445,-55.3442113264494
0.64675,-55.313904812148
0.649,-55.2837037284777
0.65125,-55.2536073448323
0.6535,-55.2236149381128
0.65575,-55.1937257926232
0.658,-55.1639391999678
0.66025,-55.1342544589504
0.6625,-55.1046708754751
0.66475,-55.0751877624489
0.667,-55.0458044396858
0.66925,-55.0165202338126
0.6715,-54.9873344781764
0.67375,-54.9582465127533
0.676,-54.9292556840589
0.67825,-54.9003613450607
0.6805,-54.8715628550906
0.68275,-54.8428595797605
0.685,-54.8142508908782
0.68725,-54.785736166365
0.6895,-54.7573147901745
0.69175,-54.7289861522134
0.694,-54.7007496482624
0.69625,-54.6726046798993
0.6985,-54.6445506544234
0.70075,-54.6165869847802
0.703,-54.5887130894884
0.70525,-54.5609283925671
0.7075,-54.5332323234652
0.70975,-54.5056243169909
0.712,-54.4781038132427
0.71425,-54.4506702575422
0.7165,-54.4233231003665
0.71875,-54.3960617972831
0.721,-54.3688858088846
0.72325,-54.3417946007258
0.7255,-54.3147876432603
0.72775,-54.2878644117789
0.73,-54.2610243863492
0.73225,-54.2342670517554
0.7345,-54.2075918974394
0.73675,-54.180998417443
0.739,-54.1544861103505
0.74125,-54.1280544792326
0.7435,-54.1017030315911
0.74575,-54.0754312793041
0.748,-54.0492387385723
0.75025,-54.0231249298662
0.7525,-53.9970893778737
0.75475,-53.9711316114492
0.757,-53.9452511635626
0.75925,-53.9194475712494
0.7615,-53.8937203755622
0.76375,-53.8680691215214
0.766,-53.8424933580684
0.76825,-53.8169926380181
0.7705,-53.7915665180131
0.77275,-53.7662145584774
0.775,-53.7409363235723
0.77725,-53.7157313811515
0.7795,-53.6905993027176
0.78175,-53.6655396633795
0.784,-53.6405520418095
0.78625,-53.6156360202018
0.7885,-53.5907911842312
0.79075,-53.5660171230127
0.793,-53.5413134290614
0.79525,-53.5166796982531
0.7975,-53.4921155297852
0.79975,-53.4676205261388
0.802,-53.4431942930406
0.80425,-53.4188364394258
0.8065,-53.3945465774013
0.80875,-53.3703243222097
0.811,-53.3461692921931
0.81325,-53.3220811087585
0.8155,-53.2980593963427
0.81775,-53.2741037823784
0.82,-53.25021389726
0.82225,-53.2263893743106
0.8245,-53.2026298497493
0.82675,-53.1789349626583
0.829,-53.1553043549518
0.83125,-53.1317376713435
0.8335,-53.1082345593163
0.83575,-53.0847946690916
0.838,-53.0614176535984
0.84025,-53.0381031684445
0.8425,-53.014850871886
0.84475,-52.9916604247993
0.847,-52.9685314906517
0.84925,-52.9454637354736
0.8515,-52.9224568278304
0.85375,-52.8995104387953
0.856,-52.8766242419216
0.85825,-52.8537979132167
0.8605,-52.8310311311151
0.86275,-52.8083235764526
0.865,-52.7856749324406
0.86725,-52.7630848846405
0.8695,-52.7405531209389
0.87175,-52.7180793315228
0.874,-52.6956632088554
0.87625,-52.6733044476514
0.8785,-52.6510027448542
0.88075,-52.6287577996117
0.883,-52.6065693132533
0.88525,-52.5844369892674
0.8875,-52.5623605332785
0.88975,-52.5403396530252
0.892,-52.5183740583379
0.89425,-52.4964634611175
0.8965,-52.4746075753137
0.89875,-52.4528061169041
0.901,-52.4310588038731
0.90325,-52.4093653561917
0.9055,-52.3877254957965
0.90775,-52.3661389465703
0.91,-52.3446054343221
0.91225,-52.3231246867672
0.9145,-52.3016964335083
0.91675,-52.2803204060162
0.919,-52.258996337611
0.92125,-52.2377239634437
0.9235,-52.2165030204773
0.92575,-52.1953332474695
0.928,-52.174214384954
0.93025,-52.1531461752232
0.9325,-52.1321283623107
0.93475,-52.1111606919741
0.937,-52.090242911678
0.93925,-52.0693747705768
0.9415,-52.0485560194986
0.94375,-52.0277864109286
0.946,-52.0070656989928
0.94825,-51.9863936394421
0.9505,-51.9657699896365
0.95275,-51.9451945085295
0.955,-51.9246669566525
0.95725,-51.9041870961001
0.9595,-51.8837546905142
0.96175,-51.86336950507
0.964,-51.8430313064607
0.96625,-51.8227398628836
0.9685,-51.802494944025
0.97075,-51.7822963210469
0.973,-51.7621437665724
0.97525,-51.7420370546721
0.9775,-51.7219759608506
0.97975,-51.7019602620329
0.982,-51.681989736551
0.98425,-51.662064164131
0.9865,-51.6421833258799
0.98875,-51.6223470042727
0.991,-51.6025549831402
0.99325,-51.5828070476559
0.9955,-51.5631029843238
0.99775,-51.5434425809664
1,-51.5238256267124
