"Freq [GHz]","dB(S(waveport1,antenna)) []"
0.001,-108.122951482426
0.0084975,-89.5371471024294
0.015995,-84.0433371271958
0.0234925,-80.7045202357032
0.03099,-78.2987878311496
0.0384875,-76.4169712037128
0.045985,-74.8712187825472
0.0534825,-73.5595174004208
0.06098,-72.4202433511918
0.0684775,-71.4133055573666
0.075975,-70.511152507612
0.0834725,-69.6940329005409
0.09097,-68.9473034866955
0.0984675,-68.2598066306085
0.105965,-67.6228448460027
0.1134625,-67.0295067839716
0.12096,-66.4742097045273
0.1284575,-65.9523787594111
0.135955,-65.4602184834292
0.1434525,-64.9945451062806
0.15095,-64.5526617921852
0.1584475,-64.1322641402297
0.165945,-63.7313675517275
0.1734425,-63.3482506606625
0.18094,-62.9814107443134
0.1884375,-62.6295281928217
0.195935,-62.2914379151355
0.2034325,-61.9661061172366
0.21093,-61.6526112851696
0.2184275,-61.35012849107
0.225925,-61.0579163488689
0.2334225,-60.7753061003381
0.24092,-60.5016924271439
0.2484175,-60.2365256713738
0.255915,-59.9793052131286
0.2634125,-59.7295738046196
0.27091,-59.4869126996318
0.2784075,-59.2509374480227
0.285905,-59.0212942491794
0.2934025,-58.7976567775894
0.3009,-58.5797234090215
0.3083975,-58.3672147881423
0.315895,-58.1598716883421
0.3233925,-57.9574531226332
0.33089,-57.7597346710839
0.3383875,-57.5665069956707
0.345885,-57.3775745178988
0.3533825,-57.1927542382434
0.36088,-57.0118746795413
0.3683775,-56.8347749390387
0.375875,-56.6613038359552
0.3833725,-56.4913191432441
0.39087,-56.3246868937611
0.3983675,-56.1612807523596
0.405865,-56.0009814465329
0.4133625,-55.8436762491754
0.42086,-55.6892585078375
0.4283575,-55.5376272155499
0.435855,-55.3886866188881
0.4433525,-55.2423458594648
0.45085,-55.0985186454881
0.4583475,-54.9571229504076
0.465845,-54.8180807360132
0.4733425,-54.6813176976416
0.48084,-54.5467630294083
0.4883375,-54.4143492076027
0.495835,-54.2840117905884
0.5033325,-54.1556892337208
0.51083,-54.02932271795
0.5183275,-53.9048559909124
0.525825,-53.782235219435
0.5333225,-53.6614088524824
0.54082,-53.5423274936722
0.5483175,-53.4249437825678
0.555815,-53.3092122840344
0.5633125,-53.1950893850074
0.57081,-53.0825331980891
0.5783075,-52.9715034714344
0.585805,-52.8619615044436
0.5933025,-52.7538700688163
0.6008,-52.6471933345638
0.6082975,-52.5418968006102
0.615795,-52.4379472296462
0.6232925,-52.3353125869248
0.63079,-52.2339619827185
0.6382875,-52.1338656181758
0.645785,-52.0349947343413
0.6532825,-51.937321564118
0.66078,-51.8408192869727
0.6682775,-51.7454619861962
0.675775,-51.6512246085497
0.6832725,-51.5580829261377
0.69077,-51.4660135003628
0.6982675,-51.3749936478263
0.705765,-51.2850014080508
0.7132625,-51.1960155129098
0.72076,-51.1080153576556
0.7282575,-51.0209809734469
0.735755,-50.9348930012857
0.7432525,-50.849732667274
0.75075,-50.7654817591151
0.7582475,-50.682122603782
0.765745,-50.5996380462853
0.7732425,-50.5180114294769
0.78074,-50.4372265748283
0.7882375,-50.3572677641279
0.795735,-50.2781197220466
0.8032325,-50.1997675995199
0.81073,-50.1221969579043
0.8182275,-50.0453937538626
0.825725,-49.9693443249392
0.8332225,-49.8940353757891
0.84072,-49.8194539650228
0.8482175,-49.7455874926372
0.855715,-49.6724236879992
0.8632125,-49.5999505983549
0.87071,-49.5281565778356
0.8782075,-49.4570302769364
0.885705,-49.3865606324418
0.8932025,-49.3167368577774
0.9007,-49.2475484337648
0.9081975,-49.1789850997607
0.915695,-49.1110368451602
0.9231925,-49.0436939012483
0.93069,-48.9769467333799
0.9381875,-48.9107860334756
0.945685,-48.8452027128156
0.9531825,-48.7801878951193
0.96068,-48.7157329098962
0.9681775,-48.651829286056
0.975675,-48.5884687457656
0.9831725,-48.5256431985416
0.99067,-48.4633447355678
0.9981675,-48.4015656242275
1.005665,-48.3402983028407
1.0131625,-48.2795353755972
1.02066,-48.2192696076771
1.0281575,-48.1594939205504
1.035655,-48.1002013874475
1.0431525,-48.0413852289935
1.05065,-47.9830388089997
1.0581475,-47.9251556304048
1.065645,-47.8677293313599
1.0731425,-47.8107536814508
1.08064,-47.7542225780529
1.0881375,-47.6981300428121
1.095635,-47.6424702182466
1.1031325,-47.5872373644657
1.11063,-47.5324258559993
1.1181275,-47.478030178735
1.125625,-47.4240449269577
1.1331225,-47.3704648004877
1.14062,-47.3172846019137
1.1481175,-47.2644992339165
1.155615,-47.2121036966804
1.1631125,-47.1600930853886
1.17061,-47.1084625877993
1.1781075,-47.0572074818991
1.185605,-47.0063231336319
1.1931025,-46.955804994699
1.2006,-46.9056486004288
1.2080975,-46.8558495677126
1.215595,-46.8064035930053
1.2230925,-46.7573064503867
1.23059,-46.7085539896836
1.2380875,-46.6601421346481
1.245585,-46.6120668811913
1.2530825,-46.5643242956712
1.26058,-46.5169105132304
1.2680775,-46.4698217361842
1.275575,-46.4230542324564
1.2830725,-46.3766043340611
1.29057,-46.3304684356282
1.2980675,-46.2846429929731
1.305565,-46.2391245217063
1.3130625,-46.1939095958846
1.32056,-46.1489948466989
1.3280575,-46.1043769612015
1.335555,-46.0600526810671
1.3430525,-46.0160188013909
1.35055,-45.9722721695181
1.3580475,-45.9288096839078
1.365545,-45.8856282930271
1.3730425,-45.8427249942758
1.38054,-45.800096832941
1.3880375,-45.7577409011795
1.395535,-45.7156543370283
1.4030325,-45.6738343234409
1.41053,-45.6322780873501
1.4180275,-45.5909828987553
1.425525,-45.5499460698344
1.4330225,-45.5091649540783
1.44052,-45.4686369454486
1.4480175,-45.4283594775574
1.455515,-45.3883300228673
1.4630125,-45.3485460919136
1.47051,-45.3090052325448
1.4780075,-45.2697050291833
1.485505,-45.230643102105
1.4930025,-45.1918171067362
1.5005,-45.1532247329691
1.5079975,-45.1148637044937
1.515495,-45.0767317781463
1.5229925,-45.0388267432746
1.53049,-45.0011464211176
1.5379875,-44.9636886642016
1.545485,-44.9264513557496
1.5529825,-44.8894324091063
1.56048,-44.8526297671757
1.5679775,-44.8160414018733
1.575475,-44.7796653135903
1.5829725,-44.7434995306711
1.59047,-44.7075421089029
1.5979675,-44.6717911310171
1.605465,-44.6362447062025
1.6129625,-44.6009009696298
1.62046,-44.5657580819869
1.6279575,-44.5308142290249
1.635455,-44.4960676211144
1.6429525,-44.4615164928119
1.65045,-44.4271591024361
1.6579475,-44.3929937316535
1.665445,-44.3590186850734
1.6729425,-44.3252322898518
1.68044,-44.2916328953038
1.6879375,-44.2582188725254
1.695435,-44.2249886140224
1.7029325,-44.1919405333478
1.71043,-44.1590730647478
1.7179275,-44.126384662814
1.725425,-44.0938738021443
1.7329225,-44.0615389770104
1.74042,-44.0293787010321
1.7479175,-43.9973915068591
1.755415,-43.9655759458591
1.7629125,-43.9339305878123
1.77041,-43.9024540206124
1.7779075,-43.8711448499737
1.785405,-43.8400016991444
1.7929025,-43.8090232086251
1.8004,-43.7782080358939
1.8078975,-43.7475548551361
1.815395,-43.7170623569804
1.8228925,-43.686729248239
1.83039,-43.6565542516541
1.8378875,-43.626536105649
1.845385,-43.5966735640834
1.8528825,-43.5669653960145
1.86038,-43.5374103854618
1.8678775,-43.5080073311775
1.875375,-43.47875504642
1.8828725,-43.449652358733
1.89037,-43.4206981097276
1.8978675,-43.3918911548695
1.905365,-43.3632303632695
1.9128625,-43.3347146174782
1.92036,-43.3063428132846
1.9278575,-43.2781138595181
1.935355,-43.2500266778541
1.9428525,-43.2220802026239
1.95035,-43.1942733806266
1.9578475,-43.1666051709459
1.965345,-43.1390745447694
1.9728425,-43.1116804852108
1.98034,-43.0844219871361
1.9878375,-43.0572980569922
1.995335,-43.0303077126384
2.0028325,-43.0034499831818
2.01033,-42.9767239088141
2.0178275,-42.9501285406526
2.025325,-42.9236629405827
2.0328225,-42.8973261811038
2.04032,-42.8711173451779
2.0478175,-42.8450355260801
2.055315,-42.8190798272522
2.0628125,-42.7932493621583
2.07031,-42.7675432541435
2.0778075,-42.7419606362948
2.085305,-42.7165006513052
2.0928025,-42.6911624513451
2.1003,-42.6659451979656
2.1077975,-42.6408480629624
2.115295,-42.6158702215213
2.1227925,-42.5910108681237
2.13029,-42.5662691977682
2.1377875,-42.5416444168557
2.145285,-42.5171357402398
2.1527825,-42.4927423912185
2.16028,-42.46846360143
2.1677775,-42.44429861074
2.175275,-42.4202466671289
2.1827725,-42.3963070265801
2.19027,-42.37247895297
2.1977675,-42.3487617179595
2.205265,-42.3251546008865
2.2127625,-42.301656888661
2.22026,-42.2782678756605
2.2277575,-42.2549868636281
2.235255,-42.2318131615712
2.2427525,-42.2087460856621
2.25025,-42.1857849591396
2.2577475,-42.1629291122127
2.265245,-42.1401778819647
2.2727425,-42.1175306122597
2.28024,-42.0949866536492
2.2877375,-42.0725453632813
2.295235,-42.0502061048102
2.3027325,-42.0279682483069
2.31023,-42.0058311701722
2.3177275,-41.9837942530494
2.325225,-41.9618568857393
2.3327225,-41.9400184631159
2.34022,-41.9182783860432
2.3477175,-41.8966360612932
2.355215,-41.8750909014647
2.3627125,-41.8536423249041
2.37021,-41.8322897556258
2.3777075,-41.8110326232347
2.385205,-41.7898703628495
2.3927025,-41.768802415027
2.4002,-41.7478282256867
2.4076975,-41.7269472460374
2.415195,-41.7061589325044
2.4226925,-41.6854627466571
2.43019,-41.6648581551378
2.4376875,-41.6443446295922
2.445185,-41.6239216465994
2.4526825,-41.6035886876038
2.46018,-41.5833452388472
2.4676775,-41.5631907913024
2.475175,-41.5431248406073
2.4826725,-41.5231468869992
2.49017,-41.5032564352513
2.4976675,-41.4834529946085
2.505165,-41.4637360787253
2.5126625,-41.4441052056032
2.52016,-41.42455989753
2.5276575,-41.4050996810189
2.535155,-41.3857240867493
2.5426525,-41.3664326495075
2.55015,-41.3472249081282
2.5576475,-41.3281004054374
2.565145,-41.3090586881952
2.5726425,-41.29009930704
2.58014,-41.2712218164323
2.5876375,-41.2524257746006
2.595135,-41.233710743487
2.6026325,-41.2150762886933
2.61013,-41.196521979429
2.6176275,-41.1780473884581
2.625125,-41.1596520920483
2.6326225,-41.1413356699195
2.64012,-41.1230977051938
2.6476175,-41.1049377843459
2.655115,-41.0868554971534
2.6626125,-41.0688504366488
2.67011,-41.0509221990715
2.6776075,-41.0330703838204
2.685105,-41.0152945934071
2.6926025,-40.9975944334098
2.7001,-40.9799695124277
2.7075975,-40.9624194420358
2.715095,-40.9449438367409
2.7225925,-40.9275423139372
2.73009,-40.910214493863
2.7375875,-40.8929599995582
2.745085,-40.8757784568217
2.7525825,-40.8586694941699
2.76008,-40.8416327427952
2.7675775,-40.8246678365258
2.775075,-40.807774411785
2.7825725,-40.7909521075521
2.79007,-40.7742005653229
2.7975675,-40.7575194290715
2.805065,-40.7409083452117
2.8125625,-40.72436696256
2.82006,-40.7078949322982
2.8275575,-40.6914919079369
2.835055,-40.6751575452794
2.8425525,-40.6588915023864
2.85005,-40.6426934395405
2.8575475,-40.6265630192121
2.865045,-40.6104999060249
2.8725425,-40.5945037667225
2.88004,-40.5785742701351
2.8875375,-40.5627110871474
2.895035,-40.5469138906655
2.9025325,-40.531182355586
2.91003,-40.5155161587646
2.9175275,-40.499914978985
2.925025,-40.4843784969292
2.9325225,-40.4689063951473
2.94002,-40.4534983580282
2.9475175,-40.438154071771
2.955015,-40.4228732243575
2.9625125,-40.4076555055386
2.97001,-40.3925006066835
2.9775075,-40.3774082210829
2.985005,-40.3623780434996
2.9925025,-40.3474097704182
3,-40.3325030999379
